"Time (EpSec)","x (km)","y (km)","z (km)","vx (km/sec)","vy (km/sec)","vz (km/sec)"
0.000,6778.139999,0.000000,-0.000000,-0.000000,0.000000,7.668556
10.000,6777.706207,0.000000,76.683927,-0.086758,0.000000,7.668065
20.000,6776.404885,0.000001,153.358034,-0.173504,0.000000,7.666593
30.000,6774.236200,0.000001,230.012508,-0.260228,0.000000,7.664139
40.000,6771.200430,0.000002,306.637537,-0.346919,0.000000,7.660704
50.000,6767.297963,0.000003,383.223312,-0.433566,0.000000,7.656288
60.000,6762.529299,0.000005,459.760032,-0.520157,0.000000,7.650893
70.000,6756.895048,0.000006,536.237900,-0.606681,0.000000,7.644518
80.000,6750.395932,0.000008,612.647126,-0.693128,0.000000,7.637164
90.000,6743.032783,0.000011,688.977931,-0.779486,0.000000,7.628834
100.000,6734.806542,0.000013,765.220545,-0.865744,0.000000,7.619526
110.000,6725.718263,0.000016,841.365208,-0.951892,0.000000,7.609244
120.000,6715.769110,0.000019,917.402174,-1.037918,0.000000,7.597987
130.000,6704.960355,0.000022,993.321711,-1.123810,0.000000,7.585758
140.000,6693.293383,0.000026,1069.114101,-1.209559,0.000000,7.572558
150.000,6680.769687,0.000030,1144.769644,-1.295153,0.000000,7.558389
160.000,6667.390869,0.000034,1220.278654,-1.380582,0.000000,7.543252
170.000,6653.158642,0.000038,1295.631468,-1.465833,0.000000,7.527150
180.000,6638.074829,0.000043,1370.818440,-1.550897,0.000000,7.510084
190.000,6622.141359,0.000048,1445.829947,-1.635763,0.000000,7.492057
200.000,6605.360272,0.000053,1520.656387,-1.720419,0.000001,7.473071
210.000,6587.733717,0.000058,1595.288182,-1.804855,0.000001,7.453129
220.000,6569.263949,0.000064,1669.715781,-1.889060,0.000001,7.432232
230.000,6549.953332,0.000069,1743.929656,-1.973023,0.000001,7.410384
240.000,6529.804339,0.000076,1817.920309,-2.056733,0.000001,7.387588
250.000,6508.819548,0.000082,1891.678268,-2.140180,0.000001,7.363846
260.000,6487.001645,0.000088,1965.194094,-2.223354,0.000001,7.339162
270.000,6464.353423,0.000095,2038.458375,-2.306242,0.000001,7.313538
280.000,6440.877781,0.000102,2111.461735,-2.388836,0.000001,7.286978
290.000,6416.577724,0.000110,2184.194829,-2.471124,0.000001,7.259485
300.000,6391.456362,0.000117,2256.648347,-2.553095,0.000001,7.231064
310.000,6365.516911,0.000125,2328.813017,-2.634740,0.000001,7.201716
320.000,6338.762691,0.000133,2400.679600,-2.716047,0.000001,7.171447
330.000,6311.197126,0.000141,2472.238898,-2.797007,0.000001,7.140260
340.000,6282.823745,0.000150,2543.481752,-2.877609,0.000001,7.108159
350.000,6253.646179,0.000158,2614.399042,-2.957842,0.000001,7.075148
360.000,6223.668164,0.000167,2684.981693,-3.037697,0.000001,7.041231
370.000,6192.893536,0.000176,2755.220668,-3.117163,0.000001,7.006414
380.000,6161.326234,0.000186,2825.106978,-3.196230,0.000001,6.970699
390.000,6128.970299,0.000195,2894.631678,-3.274888,0.000001,6.934092
400.000,6095.829873,0.000205,2963.785868,-3.353127,0.000001,6.896598
410.000,6061.909197,0.000215,3032.560697,-3.430936,0.000001,6.858221
420.000,6027.212613,0.000225,3100.947363,-3.508307,0.000001,6.818966
430.000,5991.744562,0.000236,3168.937110,-3.585228,0.000001,6.778838
440.000,5955.509584,0.000246,3236.521238,-3.661690,0.000001,6.737843
450.000,5918.512318,0.000257,3303.691096,-3.737684,0.000001,6.695985
460.000,5880.757498,0.000268,3370.438086,-3.813199,0.000001,6.653270
470.000,5842.249957,0.000279,3436.753664,-3.888227,0.000001,6.609704
480.000,5802.994624,0.000290,3502.629343,-3.962756,0.000001,6.565291
490.000,5762.996523,0.000302,3568.056690,-4.036779,0.000001,6.520038
500.000,5722.260775,0.000314,3633.027331,-4.110284,0.000001,6.473951
510.000,5680.792593,0.000325,3697.532950,-4.183264,0.000001,6.427035
520.000,5638.597286,0.000338,3761.565290,-4.255708,0.000001,6.379296
530.000,5595.680253,0.000350,3825.116155,-4.327607,0.000001,6.330741
540.000,5552.046989,0.000362,3888.177412,-4.398953,0.000001,6.281376
550.000,5507.703077,0.000375,3950.740987,-4.469735,0.000001,6.231206
560.000,5462.654195,0.000387,4012.798874,-4.539945,0.000001,6.180239
570.000,5416.906108,0.000400,4074.343129,-4.609574,0.000001,6.128481
580.000,5370.464673,0.000413,4135.365875,-4.678614,0.000001,6.075938
590.000,5323.335832,0.000426,4195.859300,-4.747054,0.000001,6.022618
600.000,5275.525619,0.000439,4255.815662,-4.814887,0.000001,5.968527
610.000,5227.040153,0.000453,4315.227287,-4.882103,0.000001,5.913672
620.000,5177.885640,0.000466,4374.086569,-4.948695,0.000001,5.858059
630.000,5128.068373,0.000480,4432.385976,-5.014653,0.000001,5.801698
640.000,5077.594726,0.000493,4490.118045,-5.079969,0.000001,5.744593
650.000,5026.471161,0.000507,4547.275385,-5.144635,0.000001,5.686753
660.000,4974.704222,0.000521,4603.850683,-5.208642,0.000001,5.628186
670.000,4922.300534,0.000535,4659.836694,-5.271983,0.000001,5.568897
680.000,4869.266805,0.000549,4715.226255,-5.334649,0.000001,5.508897
690.000,4815.609823,0.000564,4770.012274,-5.396633,0.000001,5.448190
700.000,4761.336457,0.000578,4824.187740,-5.457925,0.000001,5.386787
710.000,4706.453652,0.000592,4877.745718,-5.518519,0.000001,5.324694
720.000,4650.968433,0.000607,4930.679353,-5.578406,0.000001,5.261920
730.000,4594.887904,0.000621,4982.981869,-5.637580,0.000001,5.198472
740.000,4538.219241,0.000636,5034.646572,-5.696032,0.000001,5.134359
750.000,4480.969699,0.000651,5085.666849,-5.753755,0.000001,5.069588
760.000,4423.146604,0.000666,5136.036169,-5.810741,0.000001,5.004169
770.000,4364.757359,0.000680,5185.748084,-5.866984,0.000001,4.938109
780.000,4305.809436,0.000695,5234.796233,-5.922475,0.000001,4.871417
790.000,4246.310382,0.000710,5283.174337,-5.977209,0.000001,4.804101
800.000,4186.267811,0.000725,5330.876203,-6.031177,0.000001,4.736171
810.000,4125.689409,0.000740,5377.895726,-6.084374,0.000002,4.667634
820.000,4064.582929,0.000755,5424.226888,-6.136792,0.000002,4.598500
830.000,4002.956194,0.000770,5469.863757,-6.188424,0.000002,4.528777
840.000,3940.817092,0.000785,5514.800493,-6.239264,0.000002,4.458474
850.000,3878.173575,0.000801,5559.031343,-6.289306,0.000002,4.387601
860.000,3815.033662,0.000816,5602.550647,-6.338542,0.000002,4.316167
870.000,3751.405435,0.000831,5645.352833,-6.386967,0.000002,4.244179
880.000,3687.297038,0.000846,5687.432424,-6.434575,0.000002,4.171649
890.000,3622.716676,0.000861,5728.784032,-6.481359,0.000002,4.098585
900.000,3557.672616,0.000876,5769.402365,-6.527314,0.000002,4.024995
910.000,3492.173184,0.000891,5809.282224,-6.572433,0.000002,3.950891
920.000,3426.226763,0.000906,5848.418504,-6.616711,0.000002,3.876281
930.000,3359.841793,0.000922,5886.806196,-6.660142,0.000002,3.801175
940.000,3293.026773,0.000937,5924.440385,-6.702720,0.000002,3.725583
950.000,3225.790253,0.000952,5961.316256,-6.744440,0.000002,3.649513
960.000,3158.140841,0.000967,5997.429087,-6.785298,0.000002,3.572976
970.000,3090.087195,0.000982,6032.774257,-6.825286,0.000001,3.495982
980.000,3021.638026,0.000997,6067.347241,-6.864401,0.000001,3.418541
990.000,2952.802095,0.001012,6101.143613,-6.902638,0.000001,3.340662
1000.000,2883.588213,0.001026,6134.159048,-6.939991,0.000001,3.262355
1010.000,2814.005239,0.001041,6166.389320,-6.976455,0.000001,3.183631
1020.000,2744.062080,0.001056,6197.830303,-7.012027,0.000001,3.104499
1030.000,2673.767688,0.001071,6228.477973,-7.046701,0.000001,3.024970
1040.000,2603.131060,0.001085,6258.328406,-7.080474,0.000001,2.945053
1050.000,2532.161238,0.001100,6287.377782,-7.113339,0.000001,2.864760
1060.000,2460.867307,0.001114,6315.622383,-7.145295,0.000001,2.784100
1070.000,2389.258390,0.001129,6343.058592,-7.176336,0.000001,2.703083
1080.000,2317.343655,0.001143,6369.682899,-7.206458,0.000001,2.621721
1090.000,2245.132306,0.001157,6395.491894,-7.235658,0.000001,2.540023
1100.000,2172.633586,0.001172,6420.482275,-7.263932,0.000001,2.458000
1110.000,2099.856774,0.001186,6444.650843,-7.291276,0.000001,2.375662
1120.000,2026.811186,0.001200,6467.994504,-7.317686,0.000001,2.293020
1130.000,1953.506172,0.001213,6490.510269,-7.343160,0.000001,2.210085
1140.000,1879.951114,0.001227,6512.195257,-7.367694,0.000001,2.126867
1150.000,1806.155428,0.001241,6533.046692,-7.391285,0.000001,2.043376
1160.000,1732.128558,0.001254,6553.061904,-7.413930,0.000001,1.959624
1170.000,1657.879981,0.001268,6572.238333,-7.435627,0.000001,1.875621
1180.000,1583.419200,0.001281,6590.573522,-7.456371,0.000001,1.791378
1190.000,1508.755745,0.001294,6608.065125,-7.476161,0.000001,1.706905
1200.000,1433.899175,0.001307,6624.710903,-7.494994,0.000001,1.622215
1210.000,1358.859069,0.001320,6640.508725,-7.512867,0.000001,1.537316
1220.000,1283.645033,0.001333,6655.456569,-7.529779,0.000001,1.452221
1230.000,1208.266695,0.001346,6669.552521,-7.545728,0.000001,1.366940
1240.000,1132.733703,0.001358,6682.794777,-7.560710,0.000001,1.281483
1250.000,1057.055724,0.001370,6695.181642,-7.574724,0.000001,1.195863
1260.000,981.242446,0.001383,6706.711529,-7.587769,0.000001,1.110090
1270.000,905.303572,0.001395,6717.382964,-7.599843,0.000001,1.024174
1280.000,829.248823,0.001407,6727.194579,-7.610944,0.000001,0.938128
1290.000,753.087933,0.001418,6736.145120,-7.621071,0.000001,0.851961
1300.000,676.830651,0.001430,6744.233439,-7.630223,0.000001,0.765685
1310.000,600.486738,0.001441,6751.458501,-7.638397,0.000001,0.679312
1320.000,524.065966,0.001452,6757.819382,-7.645594,0.000001,0.592851
1330.000,447.578116,0.001464,6763.315267,-7.651813,0.000001,0.506314
1340.000,371.032979,0.001474,6767.945452,-7.657052,0.000001,0.419713
1350.000,294.440353,0.001485,6771.709345,-7.661310,0.000001,0.333058
1360.000,217.810041,0.001496,6774.606463,-7.664589,0.000001,0.246360
1370.000,141.151852,0.001506,6776.636436,-7.666886,0.000001,0.159630
1380.000,64.475598,0.001516,6777.799003,-7.668201,0.000001,0.072881
1390.000,-12.208906,0.001526,6778.094016,-7.668536,0.000001,-0.013879
1400.000,-88.891844,0.001536,6777.521436,-7.667888,0.000001,-0.100636
1410.000,-165.563402,0.001545,6776.081336,-7.666260,0.000001,-0.187381
1420.000,-242.213766,0.001555,6773.773901,-7.663650,0.000001,-0.274101
1430.000,-318.833123,0.001564,6770.599425,-7.660058,0.000001,-0.360787
1440.000,-395.411667,0.001573,6766.558315,-7.655487,0.000001,-0.447426
1450.000,-471.939596,0.001582,6761.651088,-7.649936,0.000001,-0.534009
1460.000,-548.407115,0.001590,6755.878372,-7.643405,0.000001,-0.620522
1470.000,-624.804434,0.001598,6749.240905,-7.635896,0.000001,-0.706957
1480.000,-701.121776,0.001606,6741.739537,-7.627410,0.000001,-0.793301
1490.000,-777.349372,0.001614,6733.375227,-7.617947,0.000001,-0.879543
1500.000,-853.477465,0.001622,6724.149047,-7.607509,0.000001,-0.965673
1510.000,-929.496310,0.001629,6714.062176,-7.596098,0.000001,-1.051679
1520.000,-1005.396177,0.001636,6703.115906,-7.583714,0.000001,-1.137551
1530.000,-1081.167350,0.001643,6691.311637,-7.570359,0.000001,-1.223277
1540.000,-1156.800131,0.001650,6678.650881,-7.556036,0.000001,-1.308847
1550.000,-1232.284839,0.001657,6665.135257,-7.540745,0.000001,-1.394249
1560.000,-1307.611812,0.001663,6650.766495,-7.524489,0.000001,-1.479473
1570.000,-1382.771407,0.001669,6635.546435,-7.507270,0.000001,-1.564507
1580.000,-1457.754004,0.001674,6619.477023,-7.489090,0.000001,-1.649341
1590.000,-1532.550006,0.001680,6602.560318,-7.469951,0.000001,-1.733964
1600.000,-1607.149838,0.001685,6584.798483,-7.449856,0.000001,-1.818365
1610.000,-1681.543951,0.001690,6566.193792,-7.428808,0.000000,-1.902533
1620.000,-1755.722824,0.001695,6546.748627,-7.406808,0.000000,-1.986458
1630.000,-1829.676960,0.001699,6526.465476,-7.383861,0.000000,-2.070129
1640.000,-1903.396894,0.001703,6505.346934,-7.359968,0.000000,-2.153534
1650.000,-1976.873189,0.001707,6483.395706,-7.335134,0.000000,-2.236664
1660.000,-2050.096440,0.001711,6460.614600,-7.309360,0.000000,-2.319508
1670.000,-2123.057275,0.001714,6437.006532,-7.282651,0.000000,-2.402055
1680.000,-2195.746354,0.001717,6412.574524,-7.255010,0.000000,-2.484294
1690.000,-2268.154372,0.001720,6387.321703,-7.226440,0.000000,-2.566216
1700.000,-2340.272063,0.001722,6361.251301,-7.196945,0.000000,-2.647809
1710.000,-2412.090194,0.001724,6334.366654,-7.166528,0.000000,-2.729063
1720.000,-2483.599572,0.001726,6306.671204,-7.135195,0.000000,-2.809968
1730.000,-2554.791044,0.001728,6278.168496,-7.102948,0.000000,-2.890513
1740.000,-2625.655497,0.001729,6248.862178,-7.069792,0.000000,-2.970688
1750.000,-2696.183861,0.001730,6218.756000,-7.035731,0.000000,-3.050483
1760.000,-2766.367107,0.001731,6187.853815,-7.000769,0.000000,-3.129888
1770.000,-2836.196252,0.001731,6156.159581,-6.964911,0.000000,-3.208892
1780.000,-2905.662357,0.001731,6123.677352,-6.928162,-0.000000,-3.287485
1790.000,-2974.756532,0.001731,6090.411286,-6.890526,-0.000000,-3.365657
1800.000,-3043.469930,0.001730,6056.365642,-6.852007,-0.000000,-3.443399
1810.000,-3111.793757,0.001729,6021.544776,-6.812612,-0.000000,-3.520700
1820.000,-3179.719267,0.001728,5985.953147,-6.772345,-0.000000,-3.597550
1830.000,-3247.237766,0.001726,5949.595308,-6.731211,-0.000000,-3.673940
1840.000,-3314.340609,0.001724,5912.475914,-6.689215,-0.000000,-3.749860
1850.000,-3381.019210,0.001722,5874.599717,-6.646363,-0.000000,-3.825299
1860.000,-3447.265031,0.001720,5835.971563,-6.602660,-0.000000,-3.900249
1870.000,-3513.069593,0.001717,5796.596397,-6.558112,-0.000000,-3.974700
1880.000,-3578.424473,0.001713,5756.479259,-6.512725,-0.000000,-4.048642
1890.000,-3643.321306,0.001710,5715.625284,-6.466503,-0.000000,-4.122066
1900.000,-3707.751784,0.001706,5674.039701,-6.419455,-0.000000,-4.194962
1910.000,-3771.707659,0.001701,5631.727833,-6.371584,-0.000000,-4.267321
1920.000,-3835.180745,0.001697,5588.695095,-6.322898,-0.000000,-4.339134
1930.000,-3898.162918,0.001692,5544.946996,-6.273402,-0.000001,-4.410392
1940.000,-3960.646114,0.001686,5500.489134,-6.223104,-0.000001,-4.481085
1950.000,-4022.622337,0.001680,5455.327202,-6.172009,-0.000001,-4.551205
1960.000,-4084.083652,0.001674,5409.466978,-6.120123,-0.000001,-4.620742
1970.000,-4145.022192,0.001668,5362.914334,-6.067455,-0.000001,-4.689688
1980.000,-4205.430157,0.001661,5315.675227,-6.014009,-0.000001,-4.758033
1990.000,-4265.299813,0.001653,5267.755704,-5.959794,-0.000001,-4.825769
2000.000,-4324.623499,0.001646,5219.161900,-5.904816,-0.000001,-4.892888
2010.000,-4383.393618,0.001637,5169.900033,-5.849082,-0.000001,-4.959380
2020.000,-4441.602650,0.001629,5119.976409,-5.792600,-0.000001,-5.025238
2030.000,-4499.243141,0.001620,5069.397418,-5.735376,-0.000001,-5.090452
2040.000,-4556.307715,0.001611,5018.169535,-5.677417,-0.000001,-5.155015
2050.000,-4612.789066,0.001601,4966.299316,-5.618732,-0.000001,-5.218918
2060.000,-4668.679965,0.001591,4913.793400,-5.559328,-0.000001,-5.282153
2070.000,-4723.973256,0.001580,4860.658509,-5.499212,-0.000001,-5.344712
2080.000,-4778.661863,0.001569,4806.901443,-5.438392,-0.000001,-5.406587
2090.000,-4832.738784,0.001558,4752.529084,-5.376876,-0.000001,-5.467769
2100.000,-4886.197097,0.001546,4697.548391,-5.314672,-0.000001,-5.528252
2110.000,-4939.029959,0.001534,4641.966401,-5.251788,-0.000001,-5.588027
2120.000,-4991.230607,0.001522,4585.790229,-5.188231,-0.000001,-5.647087
2130.000,-5042.792359,0.001508,4529.027065,-5.124010,-0.000001,-5.705424
2140.000,-5093.708614,0.001495,4471.684176,-5.059133,-0.000001,-5.763031
2150.000,-5143.972855,0.001481,4413.768900,-4.993608,-0.000001,-5.819900
2160.000,-5193.578648,0.001467,4355.288652,-4.927444,-0.000001,-5.876025
2170.000,-5242.519643,0.001452,4296.250916,-4.860650,-0.000002,-5.931397
2180.000,-5290.789574,0.001437,4236.663250,-4.793233,-0.000002,-5.986010
2190.000,-5338.382263,0.001421,4176.533280,-4.725203,-0.000002,-6.039856
2200.000,-5385.291617,0.001405,4115.868704,-4.656568,-0.000002,-6.092930
2210.000,-5431.511631,0.001388,4054.677285,-4.587337,-0.000002,-6.145223
2220.000,-5477.036390,0.001371,3992.966858,-4.517518,-0.000002,-6.196730
2230.000,-5521.860064,0.001354,3930.745321,-4.447121,-0.000002,-6.247444
2240.000,-5565.976917,0.001336,3868.020638,-4.376155,-0.000002,-6.297358
2250.000,-5609.381301,0.001318,3804.800838,-4.304629,-0.000002,-6.346467
2260.000,-5652.067659,0.001299,3741.094014,-4.232552,-0.000002,-6.394762
2270.000,-5694.030528,0.001280,3676.908319,-4.159933,-0.000002,-6.442240
2280.000,-5735.264535,0.001260,3612.251970,-4.086781,-0.000002,-6.488892
2290.000,-5775.764402,0.001240,3547.133243,-4.013106,-0.000002,-6.534714
2300.000,-5815.524945,0.001219,3481.560473,-3.938918,-0.000002,-6.579700
2310.000,-5854.541074,0.001198,3415.542054,-3.864225,-0.000002,-6.623843
2320.000,-5892.807794,0.001176,3349.086435,-3.789037,-0.000002,-6.667139
2330.000,-5930.320207,0.001154,3282.202125,-3.713365,-0.000002,-6.709581
2340.000,-5967.073510,0.001132,3214.897682,-3.637217,-0.000002,-6.751164
2350.000,-6003.062999,0.001109,3147.181724,-3.560604,-0.000002,-6.791883
2360.000,-6038.284066,0.001085,3079.062918,-3.483535,-0.000002,-6.831733
2370.000,-6072.732203,0.001061,3010.549982,-3.406019,-0.000002,-6.870708
2380.000,-6106.403000,0.001037,2941.651688,-3.328068,-0.000002,-6.908804
2390.000,-6139.292147,0.001012,2872.376853,-3.249691,-0.000003,-6.946015
2400.000,-6171.395432,0.000987,2802.734346,-3.170898,-0.000003,-6.982338
2410.000,-6202.708747,0.000961,2732.733081,-3.091699,-0.000003,-7.017766
2420.000,-6233.228083,0.000935,2662.382018,-3.012104,-0.000003,-7.052296
2430.000,-6262.949532,0.000908,2591.690162,-2.932123,-0.000003,-7.085924
2440.000,-6291.869291,0.000881,2520.666562,-2.851767,-0.000003,-7.118644
2450.000,-6319.983657,0.000853,2449.320310,-2.771046,-0.000003,-7.150454
2460.000,-6347.289030,0.000825,2377.660538,-2.689970,-0.000003,-7.181348
2470.000,-6373.781915,0.000797,2305.696418,-2.608550,-0.000003,-7.211323
2480.000,-6399.458920,0.000768,2233.437163,-2.526796,-0.000003,-7.240374
2490.000,-6424.316759,0.000738,2160.892022,-2.444719,-0.000003,-7.268499
2500.000,-6448.352249,0.000708,2088.070280,-2.362328,-0.000003,-7.295694
2510.000,-6471.562313,0.000678,2014.981260,-2.279635,-0.000003,-7.321954
2520.000,-6493.943980,0.000647,1941.634316,-2.196650,-0.000003,-7.347278
2530.000,-6515.494383,0.000616,1868.038839,-2.113384,-0.000003,-7.371661
2540.000,-6536.210765,0.000584,1794.204247,-2.029848,-0.000003,-7.395100
2550.000,-6556.090473,0.000552,1720.139993,-1.946051,-0.000003,-7.417593
2560.000,-6575.130962,0.000519,1645.855557,-1.862006,-0.000003,-7.439136
2570.000,-6593.329794,0.000486,1571.360448,-1.777722,-0.000003,-7.459727
2580.000,-6610.684640,0.000453,1496.664201,-1.693210,-0.000003,-7.479363
2590.000,-6627.193277,0.000419,1421.776379,-1.608482,-0.000003,-7.498042
2600.000,-6642.853592,0.000384,1346.706566,-1.523548,-0.000003,-7.515761
2610.000,-6657.663580,0.000350,1271.464372,-1.438418,-0.000004,-7.532518
2620.000,-6671.621345,0.000314,1196.059429,-1.353105,-0.000004,-7.548310
2630.000,-6684.725099,0.000279,1120.501389,-1.267618,-0.000004,-7.563137
2640.000,-6696.973165,0.000242,1044.799924,-1.181969,-0.000004,-7.576995
2650.000,-6708.363975,0.000206,968.964724,-1.096169,-0.000004,-7.589883
2660.000,-6718.896069,0.000169,893.005496,-1.010228,-0.000004,-7.601800
2670.000,-6728.568101,0.000132,816.931964,-0.924158,-0.000004,-7.612744
2680.000,-6737.378830,0.000094,740.753865,-0.837969,-0.000004,-7.622713
2690.000,-6745.327130,0.000056,664.480951,-0.751674,-0.000004,-7.631707
2700.000,-6752.411981,0.000017,588.122985,-0.665282,-0.000004,-7.639723
2710.000,-6758.632477,-0.000022,511.689742,-0.578804,-0.000004,-7.646762
2720.000,-6763.987821,-0.000061,435.191005,-0.492253,-0.000004,-7.652822
2730.000,-6768.477327,-0.000101,358.636566,-0.405639,-0.000004,-7.657902
2740.000,-6772.100421,-0.000141,282.036226,-0.318972,-0.000004,-7.662002
2750.000,-6774.856637,-0.000182,205.399790,-0.232265,-0.000004,-7.665122
2760.000,-6776.745622,-0.000223,128.737067,-0.145528,-0.000004,-7.667260
2770.000,-6777.767135,-0.000264,52.057871,-0.058772,-0.000004,-7.668416
2780.000,-6777.921044,-0.000306,-24.627982,0.027991,-0.000004,-7.668591
2790.000,-6777.207329,-0.000348,-101.310677,0.114751,-0.000004,-7.667784
2800.000,-6775.626082,-0.000390,-177.980397,0.201496,-0.000004,-7.665996
